# WELL TRACE FROM PETREL 
# WELL NAME:              100042209506W400
# DEFINITIVE SURVEY:      P121P1 Definitive Survey
# WELL HEAD X-COORDINATE: 505177.06000000 (m)
# WELL HEAD Y-COORDINATE: 6344265.85400000 (m)
# WELL DATUM (KB, KB, from MSL): 597.40000000 (m)
# WELL TYPE:              OIL
# MD AND TVD ARE REFERENCED (=0) AT WELL DATUM AND INCREASE DOWNWARDS
# ANGLES ARE GIVEN IN DEGREES
# XYZ TRACE IS GIVEN IN COORDINATE SYSTEM UTM83-12 ("MENTOR:UTM83-12:NAD83 UTM, Zone 12 North, Meter") [SIS,502388]
# AZIM_TN: azimuth in True North 
# AZIM_GN: azimuth in Grid North 
# DX DY ARE GIVEN IN GRID NORTH IN m-UNITS
# DEPTH (Z, tvd_z) GIVEN IN m-UNITS
#===============================================================================================================================================
      MD            X            Y            Z           TVD           DX          DY        AZIM_TN        INCL         DLS        AZIM_GN
#===============================================================================================================================================
 0.0000000000 505177.06000 6344265.8540 597.40000000 0.0000000000 0.0000000264 -0.000000003 0.0000000000 0.0000000000 0.0000000000 359.92786397
 9.2000000000 505177.06000 6344265.8540 588.20000000 9.2000000000 0.0000000264 -0.000000003 0.0000000000 0.0000000000 0.0000000000 359.92786397
 12.605000000 505177.06226 6344265.8585 584.79500500 12.604995004 0.0022552537 0.0045177788 26.600000000 0.1700000000 1.4977973568 26.527863974
 16.010000000 505177.06902 6344265.8721 581.39003997 16.009960032 0.0090209144 0.0180710871 26.600000000 0.3400000000 1.4977973568 26.527863974
 21.030000000 505177.07835 6344265.8984 576.37011811 21.029881891 0.0183492211 0.0443693204 11.734570719 0.3025959914 0.5439802124 11.662434694
 26.050000000 505177.07974 6344265.9240 571.35018421 26.049815791 0.0197351679 0.0699796285 354.23000000 0.2900000000 0.5439802124 354.15786397
 30.765000000 505177.06823 6344265.9548 566.63530391 30.764696090 0.0082250406 0.1008186229 331.58531218 0.5248573631 1.7841039518 331.51317615
 35.480000000 505177.03855 6344265.9999 561.92061750 35.479382496 -0.021448766 0.1458726162 323.46000000 0.7900000000 1.7841039518 323.38786397
 40.180000000 505176.99643 6344266.0667 557.22128961 40.178710388 -0.063573624 0.2126616221 330.86012114 1.1399834085 2.3667788552 330.78798511
 44.880000000 505176.94732 6344266.1630 552.52254363 44.877456370 -0.112682674 0.3090361208 334.75000000 1.5000000000 2.3667788552 334.67786397
 49.560000000 505176.88879 6344266.3035 547.84505397 49.554946031 -0.171208628 0.4495265838 339.27543515 2.2314846556 4.7795471618 339.20329912
 54.240000000 505176.81797 6344266.5036 543.16990557 54.230094432 -0.242026233 0.6495945128 341.56000000 2.9700000000 4.7795471618 341.48786397
 56.620000000 505176.77528 6344266.6334 540.79384647 56.606153528 -0.284719691 0.7793849995 342.11375297 3.6148825484 8.1385559916 342.04161695
 59.000000000 505176.72548 6344266.7890 538.41947668 58.980523323 -0.334521147 0.9349697214 342.50000000 4.2600000000 8.1385559916 342.42786397
 67.000000000 505176.53372 6344267.3754 530.44333491 66.956665089 -0.526280691 1.5213985238 341.46771142 4.5903576668 1.2742888222 341.39557540
 75.000000000 505176.31712 6344268.0021 522.47089240 74.929107602 -0.742876210 2.1480623409 340.57400000 4.9220000000 1.2742888222 340.50186397
 75.920000000 505176.29062 6344268.0767 521.55431120 75.845688796 -0.769375809 2.2227057312 340.47928164 4.9599933585 1.2671524648 340.40714561
 76.840000000 505176.26380 6344268.1519 520.63778277 76.762217234 -0.796202057 2.2978778379 340.38600000 4.9980000000 1.2671524648 340.31386397
 83.830000000 505176.04926 6344268.7404 513.67593456 83.724065435 -1.010737285 2.8863684656 339.71826971 5.2886800204 1.2737114173 339.64613368
 90.820000000 505175.81579 6344269.3595 506.71735887 90.682641129 -1.244214947 3.5055235708 339.12000000 5.5800000000 1.2737114173 339.04786397
 95.545000000 505175.63269 6344269.8091 502.01741019 95.382589807 -1.427311241 3.9551128801 336.83074490 6.2209933587 4.3346362484 336.75860888
 100.27000000 505175.41187 6344270.3001 497.32322914 100.07677086 -1.648134471 4.4460613439 334.97000000 6.8700000000 4.3346362484 334.89786397
 104.91500000 505175.15351 6344270.8391 492.71694948 104.68305052 -1.906494321 4.9850978591 334.02453189 7.9241836642 6.8535154019 333.95239586
 109.56000000 505174.84973 6344271.4502 488.12246201 109.27753799 -2.210274847 5.5961936191 333.30000000 8.9800000000 6.8535154019 333.22786397
 112.69666667 505174.62133 6344271.9087 485.02796801 112.37203199 -2.438666565 6.0547034182 333.86183559 9.8259432444 8.1382448309 333.78969956
 115.83333333 505174.37709 6344272.4103 481.94138112 115.45861888 -2.682908469 6.5562762273 334.33536343 10.672667306 8.1382448309 334.26322740
 118.97000000 505174.11705 6344272.9548 478.86338207 118.53661793 -2.942946689 7.1008014269 334.74000000 11.520000000 8.1382448309 334.66786397
 122.13000000 505173.84083 6344273.5495 475.77224580 121.62775420 -3.219174398 7.6954514841 335.54211795 12.441424045 8.8891666185 335.46998193
 125.29000000 505173.55201 6344274.1929 472.69207076 124.70792924 -3.507986661 8.3389490452 336.23512433 13.364889315 8.8891666185 336.16298830
 128.45000000 505173.25069 6344274.8851 469.62367955 127.77632045 -3.809306348 9.0311222579 336.84000000 14.290000000 8.8891666185 336.76786397
 131.57666667 505172.94135 6344275.6195 466.60039183 130.79960817 -4.118648227 9.7655168148 337.59649804 15.254552343 9.4378174881 337.52436202
 134.70333333 505172.62199 6344276.4048 463.59096987 133.80903013 -4.438007211 10.550767666 338.26492802 16.221345071 9.4378174881 338.19279199
 137.83000000 505172.29271 6344277.2406 460.59630061 136.80369939 -4.767289180 11.386643386 338.86000000 17.190000000 9.4378174881 338.78786397
 140.98666667 505171.94838 6344278.1341 457.58851151 139.81148849 -5.111617047 12.280077469 339.12425167 18.139689617 9.0576542735 339.05211564
 144.14333333 505171.59030 6344279.0755 454.59701476 142.80298524 -5.469700354 13.221473697 339.36304600 19.089705079 9.0576542735 339.29090998
 147.30000000 505171.21856 6344280.0646 451.62263808 145.77736192 -5.841440021 14.210571595 339.58000000 20.040000000 9.0576542735 339.50786397
 150.45333333 505170.83101 6344281.1016 448.67022951 148.72977049 -6.228991627 15.247559313 339.58000000 21.083333333 9.9260042283 339.50786397
 153.60666667 505170.42471 6344282.1887 445.73847614 151.66152386 -6.635291420 16.334712326 339.58000000 22.126666667 9.9260042283 339.50786397
 156.76000000 505169.99980 6344283.3257 442.82835009 154.57164991 -7.060204681 17.471670154 339.58000000 23.170000000 9.9260042283 339.50786397
 159.85666667 505169.56874 6344284.4881 439.99095450 157.40904550 -7.491255055 18.634126125 339.86861074 24.052845698 8.6258469678 339.79647472
 162.95333333 505169.12841 6344285.6936 437.17301199 160.22698801 -7.931593866 19.839586989 340.13795262 24.936196360 8.6258469678 340.06581660
 166.05000000 505168.67889 6344286.9418 434.37520307 163.02479693 -8.381114776 21.087761645 340.39000000 25.820000000 8.6258469678 340.31786397
 170.69500000 505167.98141 6344288.8798 430.21233385 167.18766615 -9.078587632 23.025826963 340.17254182 26.849845117 6.6804210308 340.10040579
 175.34000000 505167.25137 6344290.8853 426.08717813 171.31282187 -9.808625010 25.031302363 339.97000000 27.880000000 6.6804210308 339.89786397
 180.00500000 505166.48377 6344292.9375 421.96922420 175.43077580 -10.57623165 27.083494832 339.16230952 28.172675597 3.0820268788 339.09017349
 184.67000000 505165.67989 6344294.9985 417.86261115 179.53738885 -11.38010671 29.144489245 338.37000000 28.470000000 3.0820268788 338.29786397
 187.85333333 505165.11337 6344296.4281 415.07573880 182.32426120 -11.94663104 30.574146708 338.53852559 29.329804930 8.1391381097 338.46638956
 191.03666667 505164.53571 6344297.8982 412.31226851 185.08773149 -12.52428689 32.044170392 338.69828157 30.189810528 8.1391381097 338.62614554
 194.22000000 505163.94706 6344299.4082 409.57282817 187.82717183 -13.11294301 33.554226295 338.85000000 31.050000000 8.1391381097 338.77786397
 197.34333333 505163.35506 6344300.9299 406.91072957 190.48927043 -13.70494224 35.075940774 338.77974764 32.016631035 9.2913128772 338.70761162
 200.46666667 505162.74500 6344302.4926 404.27656708 193.12343292 -14.31499863 36.638550111 338.71318714 32.983298757 9.2913128772 338.64105112
 203.59000000 505162.11706 6344304.0956 401.67109153 195.72890847 -14.94293829 38.241608920 338.65000000 33.950000000 9.2913128772 338.57786397
 206.71666667 505161.47416 6344305.7446 399.09414811 198.30585189 -15.58584158 39.890632704 338.89238977 35.036223577 10.505059074 338.82025375
 209.84333333 505160.82061 6344307.4416 396.55124099 200.84875901 -16.23939086 41.587570796 339.12201276 36.122903784 10.505059074 339.04987674
 212.97000000 505160.15665 6344309.1858 394.04329869 203.35670131 -16.90334749 43.331803575 339.34000000 37.210000000 10.505059074 339.26786397
 217.60500000 505159.13665 6344311.8348 390.38019160 207.01980840 -17.92335128 45.980806135 338.69402040 38.358315569 7.8614573588 338.62188438
 222.24000000 505158.06065 6344314.5402 386.77481753 210.62518247 -18.99935248 48.686196980 338.08000000 39.510000000 7.8614573588 338.00786397
 225.36666667 505157.30013 6344316.3990 384.37922654 213.02077346 -19.75986504 50.545048671 337.56744918 40.464540165 9.6885540227 337.49531316
 228.49333333 505156.50801 6344318.2877 382.01747929 215.38252071 -20.55199125 52.433731407 337.07455926 41.421257416 9.6885540227 337.00242323
 231.62000000 505155.68451 6344320.2057 379.69030932 217.70969068 -21.37548511 54.351658593 336.60000000 42.380000000 9.6885540227 336.52786397
 234.71000000 505154.83833 6344322.1319 377.42803135 219.97196865 -22.22166552 56.277875876 336.11785784 43.488104391 11.220780260 336.04572181
 237.80000000 505153.95853 6344324.0906 375.20691665 222.19308335 -23.10146866 58.236621495 335.65500202 44.598153553 11.220780260 335.58286599
 240.89000000 505153.04546 6344326.0811 373.02786895 224.37213105 -24.01453658 60.227098482 335.21000000 45.710000000 11.220780260 335.13786397
 244.10000000 505152.06447 6344328.1817 370.80873145 226.59126855 -24.99553456 62.327702042 334.87153600 46.819060967 10.614023203 334.79939997
 247.31000000 505151.05309 6344330.3150 368.63492137 228.76507863 -26.00691419 64.461001252 334.54515564 47.929084011 10.614023203 334.47301961
 250.52000000 505150.01172 6344332.4802 366.50729279 230.89270721 -27.04827810 66.626157964 334.23000000 49.040000000 10.614023203 334.15786397
 253.64333333 505148.98030 6344334.6256 364.48648105 232.91351895 -28.07970090 68.771557879 334.55835962 50.325799257 12.582177430 334.48622360
 256.76666667 505147.94180 6344336.8172 362.51963512 234.88036488 -29.11820168 70.963158921 334.87471235 51.612489400 12.582177430 334.80257632
 259.89000000 505146.89676 6344339.0538 360.60778305 236.79221695 -30.16323764 73.199815571 335.18000000 52.900000000 12.582177430 335.10786397
 262.94666667 505145.86838 6344341.2811 358.78576545 238.61423455 -31.19162233 75.427105526 335.39540481 53.919632085 10.150227527 335.32326879
 266.00333333 505144.83495 6344343.5413 357.00771753 240.39228247 -32.22505300 77.687323184 335.60529298 54.939639741 10.150227527 335.53315695
 269.06000000 505143.79681 6344345.8337 355.27421855 242.12578145 -33.26319295 79.979732169 335.81000000 55.960000000 10.150227527 335.73786397
 272.09000000 505142.76622 6344348.1367 353.59802833 243.80197167 -34.29377985 82.282747333 336.11614757 56.865946332 9.3183966458 336.04401154
 275.12000000 505141.73726 6344350.4691 351.96197296 245.43802704 -35.32274407 84.615139032 336.41603723 57.772626112 9.3183966458 336.34390121
 278.15000000 505140.71019 6344352.8303 350.36649385 247.03350615 -36.34980798 86.976277946 336.71000000 58.680000000 9.3183966458 336.63786397
 282.80000000 505139.12110 6344356.4935 347.98639479 249.41360521 -37.93889516 90.639479085 336.53310238 59.744883699 6.9398188204 336.46096636
 287.45000000 505137.50339 6344360.1917 345.68095377 251.71904623 -39.55660721 94.337692446 336.36000000 60.810000000 6.9398188204 336.28786397
 290.57666667 505136.39300 6344362.6959 344.17576793 253.22423207 -40.66700013 96.841946010 335.96059401 61.635539408 8.6037060714 335.88845799
 293.70333333 505135.25650 6344365.2120 342.71025089 254.68974911 -41.80349977 99.357970048 335.56735867 62.462224764 8.6037060714 335.49522265
 296.83000000 505134.09417 6344367.7391 341.28476158 256.11523842 -42.96582776 101.88514831 335.18000000 63.290000000 8.6037060714 335.10786397
 301.40500000 505132.36966 6344371.4625 339.26507730 258.13492270 -44.69034092 105.60852401 335.26068839 64.314978187 6.7379140295 335.18855236
 305.98000000 505130.63549 6344375.2205 337.31914903 260.08085097 -46.42451146 109.36649937 335.34000000 65.340000000 6.7379140295 335.26786397
 309.05333333 505129.47442 6344377.7707 336.05920540 261.34079460 -47.58558088 111.91665749 335.84357200 66.255088295 9.9945566786 335.77143597
 312.12666667 505128.32761 6344380.3489 334.84423076 262.55576924 -48.73238808 114.49491806 336.34011069 67.171785094 9.9945566786 336.26797466
 315.20000000 505127.19543 6344382.9545 333.67461310 263.72538690 -49.86456683 117.10045774 336.83000000 68.090000000 9.9945566786 336.75786397
 318.28333333 505126.07770 6344385.5968 332.54818897 264.85181103 -50.98229827 119.74278624 337.45451272 69.054469654 10.956869916 337.38237669
 321.36666667 505124.98160 6344388.2682 331.47029345 265.92970655 -52.07839947 122.41424140 338.07101928 70.021182764 10.956869916 337.99888326
 324.45000000 505123.90755 6344390.9678 330.44134292 266.95865708 -53.15244703 125.11379128 338.68000000 70.990000000 10.956869916 338.60786397
 327.51333333 505122.85201 6344393.6753 329.47585719 267.92414281 -54.20799217 127.82128512 338.86588609 72.266499289 12.619890003 338.79375007
 330.57666667 505121.79770 6344396.4055 328.57537868 268.82462132 -55.26229701 130.55154958 339.04914162 73.543171065 12.619890003 338.97700559
 333.64000000 505120.74517 6344399.1572 327.74036286 269.65963714 -56.31482825 133.30320363 339.23000000 74.820000000 12.619890003 339.15786397
 336.73000000 505119.67076 6344401.9467 326.96258980 270.43741020 -57.38924457 136.09269395 338.78552833 76.022559755 12.399773055 338.71339230
 339.82000000 505118.56910 6344404.7424 326.24777032 271.15222968 -58.49089530 138.88838372 338.34567876 77.225919269 12.399773055 338.27354273
 342.91000000 505117.44077 6344407.5429 325.59625960 271.80374040 -59.61923305 141.68888387 337.91000000 78.430000000 12.399773055 337.83786397
 345.03000000 505116.65458 6344409.4674 325.18531124 272.21468876 -60.40541723 143.61343761 337.79419836 79.215478602 11.230915934 337.72206234
 347.15000000 505115.86245 6344411.3954 324.80291338 272.59708662 -61.19754513 145.54143098 337.67900000 80.001000000 11.230915934 337.60686397
 349.64500000 505114.92280 6344413.6684 324.38954509 273.01045491 -62.13719704 147.81436514 337.54415334 80.925475413 11.230350550 337.47201732
 352.14000000 505113.97538 6344415.9449 324.01593034 273.38406966 -63.08462018 150.09094706 337.41000000 81.850000000 11.230350550 337.33786397
 356.91000000 505112.13365 6344420.2969 323.38093135 274.01906865 -64.92634629 154.44285588 336.85879568 82.849673974 7.1647941714 336.78665965
 361.68000000 505110.24611 6344424.6404 322.82853569 274.57146431 -66.81388726 158.78638658 336.31000000 83.850000000 7.1647941714 336.23786397
 366.29500000 505108.38692 6344428.8330 322.33191578 275.06808422 -68.67308270 162.97901228 336.00503183 83.794912769 2.0032132671 335.93289581
 370.91000000 505106.50563 6344433.0152 321.83089172 275.56910828 -70.55437375 167.16124513 335.70000000 83.740000000 2.0032132671 335.62786397
 375.73000000 505104.53324 6344437.3791 321.30113572 276.09886428 -72.52675531 171.52508688 335.79998055 83.639990393 0.8775112126 335.72784452
 380.55000000 505102.56886 6344441.7455 320.76301900 276.63698100 -74.49113536 175.89151491 335.90000000 83.540000000 0.8775112126 335.82786397
 385.08000000 505100.73044 6344445.8521 320.25197536 277.14802464 -76.32955791 179.99806315 336.00999235 83.504988132 0.7600091467 335.93785632
 389.61000000 505098.90003 6344449.9618 319.73818226 277.66181774 -78.15996576 184.10784751 336.12000000 83.470000000 0.7600091467 336.04786397
 394.31500000 505097.01181 6344454.2360 319.20392642 278.19607358 -80.04819455 188.38203668 336.35500936 83.489945712 1.4941960531 336.28287333
 399.02000000 505095.14105 6344458.5181 318.67130235 278.72869765 -81.91895132 192.66410506 336.59000000 83.510000000 1.4941960531 336.51786397
 403.70500000 505093.29408 6344462.7904 318.15333511 279.24666489 -83.76591625 196.93637140 336.79511087 83.794960593 2.2435604077 336.72297484
 408.39000000 505091.46143 6344467.0715 317.65853539 279.74146461 -85.59857450 201.21753332 337.00000000 84.080000000 2.2435604077 336.92786397
 413.10000000 505089.61882 6344471.3770 317.17417628 280.22582372 -87.44118456 205.52296250 336.80498772 84.114966156 1.2554436308 336.73285170
 417.81000000 505087.76145 6344475.6764 316.69267919 280.70732081 -89.29855393 209.82236633 336.61000000 84.150000000 1.2554436308 336.53786397
 422.50000000 505085.90232 6344479.9542 316.22076111 281.17923889 -91.15767848 214.10017344 336.55498563 84.299997391 1.0213561872 336.48284960
 427.19000000 505084.03860 6344484.2313 315.76106072 281.63893928 -93.02139551 218.37731145 336.50000000 84.450000000 1.0213561872 336.42786397
 431.95500000 505082.17112 6344488.5875 315.28839711 282.11160289 -94.88888318 222.73345443 337.23462635 84.164523171 4.9408300751 337.16249033
 436.72000000 505080.36058 6344492.9650 314.79215404 282.60784596 -96.69941706 227.11096866 337.97000000 83.880000000 4.9408300751 337.89786397
 441.23500000 505078.71097 6344497.1356 314.28881695 283.11118305 -98.34903156 231.28156096 339.01380361 83.318898842 7.8360569690 338.94166759
 445.75000000 505077.13949 6344501.3307 313.74164969 283.65835031 -99.92051136 235.47673823 340.06000000 82.760000000 7.8360569690 339.98786397
 450.39000000 505075.60453 6344505.6665 313.14397399 284.25602601 -101.4554729 239.81248787 341.09423273 82.438780639 6.9487602245 341.02209670
 455.03000000 505074.14921 6344510.0260 312.52060827 284.87939173 -102.9107878 244.17202303 342.13000000 82.120000000 6.9487602245 342.05786397
 459.64000000 505072.77952 6344514.3802 311.88792700 285.51207300 -104.2804845 248.52616966 343.08996514 82.103905646 6.1888376111 343.01782912
 464.25000000 505071.48301 6344518.7565 311.25405025 286.14594975 -105.5769908 252.90249466 344.05000000 82.090000000 6.1888376111 343.97786397
 467.46333333 505070.62727 6344521.8202 310.80854506 286.59145494 -106.4327334 255.96622855 344.88285123 81.971649603 7.7793574891 344.81071521
 470.67666667 505069.81639 6344524.8952 310.35651385 287.04348615 -107.2436052 259.04119116 345.71618445 81.854974384 7.7793574891 345.64404842
 473.89000000 505069.05057 6344527.9807 309.89805221 287.50194779 -108.0094347 262.12673212 346.55000000 81.740000000 7.7793574891 346.47786397
 478.48500000 505068.03202 6344532.4103 309.23583937 288.16416063 -109.0279839 266.55627429 347.69485403 81.688363562 7.4042166693 347.62271801
 483.08000000 505067.10230 6344536.8587 308.56965861 288.83034139 -109.9576969 271.00471822 348.84000000 81.640000000 7.4042166693 348.76786397
 486.13666667 505066.53811 6344539.8289 308.12790069 289.27209931 -110.5218886 273.97494112 349.79382856 81.741087191 9.3161570666 349.72169253
 489.19333333 505066.02330 6344542.8089 307.69153942 289.70846058 -111.0367038 276.95491371 350.74716328 81.844430450 9.3161570666 350.67502726
 492.25000000 505065.55800 6344545.7978 307.26069457 290.13930543 -111.5020014 279.94381813 351.70000000 81.950000000 9.3161570666 351.62786397
 495.43000000 505065.12755 6344548.9157 306.81593637 290.58406363 -111.9324456 283.06168928 352.72344866 81.970807774 9.5622941855 352.65131264
